1 A 350
2 G 349
3 A 348
4 G 347
5 U 346
6 C 345
7 G 344
8 A 343
9 U 342
10 U 341
11 G 339
12 G 319
13 A 318
14 C 317
15 A 316
16 G 315
17 U 314
18 C 313
19 G 0
20 C 46
21 U 45
22 G 0
23 C 43
24 C 42
25 C 41
26 U 40
27 C 39
28 U 38
29 A 36
30 U 35
31 G 0
32 A 0
33 A 0
34 A 0
35 A 30
36 U 29
37 U 0
38 A 28
39 G 27
40 G 26
41 G 25
42 G 24
43 G 23
44 G 0
45 G 21
46 G 20
47 A 0
48 G 0
49 G 0
50 A 0
51 A 337
52 A 336
53 G 335
54 U 0
55 C 334
56 C 333
57 G 332
58 G 331
59 G 330
60 C 225
61 U 224
62 C 223
63 C 222
64 A 0
65 U 0
66 A 0
67 G 256
68 G 255
69 G 254
70 C 253
71 G 0
72 A 221
73 A 220
74 G 219
75 U 218
76 G 217
77 C 91
78 C 90
79 A 89
80 G 88
81 G 87
82 U 0
83 A 0
84 A 0
85 U 0
86 G 0
87 C 81
88 C 80
89 U 79
90 G 78
91 G 77
92 G 106
93 G 104
94 G 103
95 G 102
96 C 101
97 G 0
98 U 0
99 G 0
100 A 0
101 G 96
102 C 95
103 C 94
104 U 93
105 A 0
106 C 92
107 G 216
108 G 215
109 A 0
110 A 0
111 A 0
112 G 214
113 U 213
114 G 210
115 C 209
116 C 208
117 A 0
118 C 0
119 A 0
120 G 0
121 A 0
122 A 0
123 A 0
124 A 0
125 U 0
126 A 0
127 A 0
128 C 155
129 C 154
130 G 151
131 C 150
132 C 149
133 U 0
134 A 0
135 A 0
136 G 147
137 C 146
138 A 145
139 C 144
140 U 0
141 U 0
142 C 0
143 G 0
144 G 139
145 U 138
146 G 137
147 C 136
148 C 0
149 G 132
150 G 131
151 U 130
152 A 0
153 A 0
154 G 129
155 G 128
156 G 0
157 U 0
158 G 0
159 A 0
160 A 0
161 A 0
162 A 0
163 G 181
164 G 180
165 U 179
166 G 178
167 C 177
168 G 176
169 G 0
170 U 0
171 A 0
172 A 0
173 G 0
174 A 0
175 G 0
176 C 168
177 G 167
178 C 166
179 A 165
180 C 164
181 C 163
182 G 205
183 C 203
184 A 202
185 C 201
186 G 200
187 A 199
188 C 197
189 U 196
190 G 195
191 G 0
192 C 0
193 A 0
194 A 0
195 C 190
196 A 189
197 G 188
198 U 0
199 U 187
200 C 186
201 G 185
202 U 184
203 G 183
204 G 0
205 C 182
206 U 0
207 A 0
208 G 116
209 G 115
210 U 114
211 A 0
212 A 0
213 A 113
214 C 112
215 C 108
216 C 107
217 C 76
218 A 75
219 C 74
220 U 73
221 U 72
222 G 63
223 G 62
224 A 61
225 G 60
226 C 0
227 A 0
228 A 0
229 G 276
230 A 275
231 C 274
232 C 273
233 A 0
234 A 0
235 A 0
236 U 0
237 A 0
238 G 0
239 G 267
240 G 266
241 U 265
242 U 264
243 C 263
244 C 262
245 A 0
246 A 0
247 G 261
248 G 260
249 C 259
250 G 258
251 U 257
252 G 0
253 G 70
254 C 69
255 C 68
256 C 67
257 G 251
258 C 250
259 G 249
260 C 248
261 U 247
262 G 244
263 G 243
264 A 242
265 A 241
266 C 240
267 C 239
268 G 0
269 G 0
270 G 0
271 U 0
272 A 0
273 G 232
274 G 231
275 U 230
276 U 229
277 G 0
278 C 0
279 U 0
280 A 0
281 A 0
282 A 0
283 G 302
284 A 301
285 U 300
286 G 299
287 U 0
288 C 297
289 C 296
290 A 295
291 G 0
292 U 0
293 G 0
294 A 0
295 U 290
296 G 289
297 G 288
298 C 0
299 C 286
300 A 285
301 U 284
302 C 283
303 G 0
304 U 0
305 A 0
306 G 0
307 A 0
308 C 0
309 G 0
310 A 0
311 A 0
312 U 0
313 G 18
314 A 17
315 C 16
316 U 15
317 G 14
318 U 13
319 U 12
320 C 0
321 A 0
322 A 0
323 G 0
324 A 0
325 C 0
326 A 0
327 G 0
328 A 0
329 A 0
330 C 59
331 C 58
332 C 57
333 G 56
334 G 55
335 C 53
336 U 52
337 U 51
338 A 0
339 U 11
340 A 0
341 G 10
342 A 9
343 U 8
344 C 7
345 G 6
346 A 5
347 C 4
348 U 3
349 C 2
350 U 1
351 C 0
352 C 0
353 A 0
354 C 0
